EOG,20111230,98.05,99.10,97.79,97.86,1284900
EOG,20111229,96.37,98.18,96.37,97.40,1343300
EOG,20111228,99.23,99.49,96.12,95.80,1506700
EOG,20111227,98.39,99.74,98.10,98.35,1619100
EOG,20111223,98.48,99.13,97.23,97.62,1556800
EOG,20111222,98.22,98.64,97.94,97.68,2933200
EOG,20111221,98.25,98.69,96.52,97.53,2440300
EOG,20111220,97.84,99.19,97.35,97.32,2350400
EOG,20111219,97.51,97.73,95.20,94.94,1886200
EOG,20111216,95.43,97.90,94.74,97.03,3651000
EOG,20111215,94.56,95.56,93.01,93.82,3018000
EOG,20111214,96.98,97.06,93.11,92.55,4634100
EOG,20111213,101.76,103.13,97.16,97.85,2913000
EOG,20111212,102.09,102.26,99.15,100.38,2180000
EOG,20111209,100.47,104.42,100.47,103.06,2846200
EOG,20111208,102.54,104.58,100.13,99.96,2482300
EOG,20111207,104.11,104.29,101.66,102.35,2082900
EOG,20111206,102.46,106.20,102.08,104.20,2136100
EOG,20111205,103.99,104.86,101.23,101.43,2579000
EOG,20111202,103.79,104.00,102.12,101.88,1628000
EOG,20111201,103.63,104.99,101.69,101.85,1935100
EOG,20111130,102.04,104.41,102.04,103.05,3641200
EOG,20111129,96.27,98.92,96.01,97.58,2509200
EOG,20111128,93.99,96.79,93.86,94.96,1944900
EOG,20111125,90.85,92.84,90.77,90.27,611700
EOG,20111123,93.61,93.89,91.39,91.00,2428000
EOG,20111122,95.58,96.31,93.64,94.35,1749400
EOG,20111121,95.71,96.65,94.05,95.37,1466500
EOG,20111118,98.37,99.86,96.03,97.19,2231600
EOG,20111117,100.40,101.30,96.16,96.38,2507200
EOG,20111116,101.94,103.41,100.54,100.02,4228300
EOG,20111115,103.33,103.92,102.00,101.68,1922700
EOG,20111114,102.94,104.47,101.30,103.08,2786400
EOG,20111111,101.21,104.05,101.17,103.32,2440000
EOG,20111110,99.41,100.77,98.43,99.38,2344200
EOG,20111109,99.44,100.66,98.00,97.58,2905000
EOG,20111108,101.75,102.24,99.45,101.24,2497800
EOG,20111107,101.48,102.40,99.73,100.50,2778900
EOG,20111104,98.84,102.52,98.28,101.01,3700800
EOG,20111103,97.58,100.61,96.19,99.37,4566400
EOG,20111102,90.72,97.82,90.13,95.40,8562400
EOG,20111101,85.99,87.00,83.88,85.31,3760300
EOG,20111031,93.39,93.50,89.30,88.84,2727600
EOG,20111028,91.64,95.26,91.63,94.55,3045000
EOG,20111027,91.00,94.00,89.83,92.23,3704600
EOG,20111026,88.98,89.27,86.34,86.84,3857800
EOG,20111025,91.08,91.08,87.25,86.94,3017100
EOG,20111024,91.11,91.81,90.24,90.48,3076800
EOG,20111021,88.96,91.08,88.21,90.02,2772400
EOG,20111020,87.51,88.04,85.09,86.76,3146700
EOG,20111019,85.66,89.18,85.51,87.29,4234100
EOG,20111018,81.52,86.61,80.23,85.45,3718100
EOG,20111017,83.30,84.10,81.12,80.87,1930800
EOG,20111014,82.09,84.07,81.71,83.42,2315300
EOG,20111013,80.02,80.53,77.64,79.69,2409500
EOG,20111012,80.80,82.69,80.30,80.26,2270600
EOG,20111011,78.64,80.49,77.97,79.45,3046300
EOG,20111010,76.84,79.45,76.74,78.73,2546900
EOG,20111007,79.05,79.23,74.73,74.26,3260300
EOG,20111006,76.37,78.91,75.51,77.87,2915000
EOG,20111005,73.71,76.95,73.22,76.14,3756700
EOG,20111004,67.34,74.03,66.81,73.03,6098700
EOG,20111003,70.14,70.24,67.79,67.82,4916300
EOG,20110930,71.39,72.76,69.55,70.40,3838900
EOG,20110929,76.03,76.36,71.88,73.15,3433300
EOG,20110928,78.73,78.80,74.14,73.65,2430500
EOG,20110927,78.65,80.52,78.04,77.94,3145900
EOG,20110926,75.26,76.79,73.14,76.02,3796000
EOG,20110923,75.36,77.17,73.35,73.09,3853900
EOG,20110922,80.83,80.93,75.13,76.09,5312500
EOG,20110921,86.97,88.31,83.41,82.71,2245600
EOG,20110920,88.21,89.55,86.87,86.37,1880800
EOG,20110919,88.12,88.62,85.96,87.01,1836000
EOG,20110916,91.13,91.25,89.25,89.39,2558400
EOG,20110915,88.87,90.40,88.12,89.62,1953500
EOG,20110914,85.86,88.86,85.10,87.00,2238800
EOG,20110913,86.43,87.42,85.32,86.01,1594800
EOG,20110912,84.53,86.16,83.92,85.37,2215900
EOG,20110909,87.31,88.28,84.91,84.59,2625600
EOG,20110908,89.62,91.97,88.77,88.48,2427300
EOG,20110907,88.48,90.85,88.10,89.89,1797500
EOG,20110906,85.74,87.11,84.93,86.21,2561600
EOG,20110902,89.35,90.19,87.82,87.59,2459800
EOG,20110901,93.32,94.16,91.29,90.64,1696400
EOG,20110831,92.98,94.17,91.44,91.80,2746800
EOG,20110830,91.10,92.75,89.75,91.41,1664300
EOG,20110829,91.22,91.68,89.81,90.76,2100300
EOG,20110826,87.74,90.16,86.00,89.08,2277900
EOG,20110825,90.62,91.23,87.53,87.50,2778100
EOG,20110824,88.35,90.03,87.84,89.15,2313000
EOG,20110823,86.32,89.00,85.58,88.21,3603600
EOG,20110822,89.90,90.50,85.85,85.61,3102400
EOG,20110819,86.62,89.77,86.50,86.82,3256800
EOG,20110818,91.66,91.66,86.85,86.88,3684200
EOG,20110817,95.27,97.05,93.02,93.19,2047300
EOG,20110816,95.00,95.70,93.11,93.77,2897400
EOG,20110815,95.19,96.48,94.63,95.46,2518000
EOG,20110812,96.78,97.83,93.14,93.34,3594800
EOG,20110811,87.96,94.28,86.95,92.34,4500600
EOG,20110810,90.51,91.08,86.68,86.24,5572600
EOG,20110809,90.28,91.90,86.10,90.08,7488800
EOG,20110808,93.60,93.81,87.06,87.84,5685700
EOG,20110805,98.27,101.22,93.40,95.10,9015700
EOG,20110804,96.51,96.51,91.45,91.34,4384400
EOG,20110803,99.27,99.33,95.57,97.14,3055400
EOG,20110802,100.86,102.37,99.08,98.36,2088300
EOG,20110801,103.89,104.32,100.49,100.75,1830400
EOG,20110729,102.18,103.36,101.50,101.12,3194400
EOG,20110728,104.04,105.33,103.07,102.54,2368400
EOG,20110727,106.00,106.02,103.97,103.18,2041000
EOG,20110726,106.21,107.88,104.62,105.66,2117600
EOG,20110725,105.20,107.46,104.80,105.30,1899200
EOG,20110722,105.55,106.60,105.01,105.66,1644200
EOG,20110721,104.64,105.90,104.09,104.65,1939300
EOG,20110720,104.81,104.81,103.53,102.92,2096300
EOG,20110719,102.00,104.28,102.00,103.14,2365100
EOG,20110718,101.39,102.59,100.48,100.65,2669200
EOG,20110715,100.00,102.12,99.74,100.32,6751200
EOG,20110714,99.46,99.58,96.40,95.88,2718900
EOG,20110713,99.51,101.09,98.58,98.09,1944000
EOG,20110712,98.84,100.11,98.53,97.88,1982900
EOG,20110711,100.44,100.44,98.57,98.00,1572600
EOG,20110708,101.98,102.62,101.16,100.88,1703100
EOG,20110707,103.67,104.01,102.44,102.50,1901100
EOG,20110706,103.04,103.32,101.75,101.23,1271900
EOG,20110705,103.31,104.99,102.95,102.19,1484900
EOG,20110701,104.37,104.56,102.39,102.03,3342500
EOG,20110630,103.55,104.83,103.24,103.49,1888300
EOG,20110629,102.63,104.16,101.59,102.05,1840600
EOG,20110628,100.60,102.79,99.99,101.37,1865000
EOG,20110627,97.40,100.43,97.21,99.31,2906200
EOG,20110624,100.08,100.41,98.07,97.27,1964600
EOG,20110623,99.06,100.24,96.62,99.14,2841400
EOG,20110622,101.73,103.40,101.22,100.31,2765900
EOG,20110621,101.51,103.18,101.23,101.15,2048400
EOG,20110620,101.51,101.91,100.22,99.87,2520200
EOG,20110617,102.41,102.99,100.71,101.21,2958000
EOG,20110616,102.56,103.55,101.25,100.58,2798200
EOG,20110615,104.15,105.33,102.25,101.82,2712100
EOG,20110614,106.26,106.98,104.62,103.96,2683200
EOG,20110613,104.71,108.56,103.65,103.64,2798500
EOG,20110610,110.00,110.46,107.57,106.57,1900500
EOG,20110609,109.56,111.17,109.03,109.65,1840200
EOG,20110608,108.12,110.86,108.12,107.83,1979900
EOG,20110607,109.51,110.04,108.02,106.95,2130500
EOG,20110606,110.54,112.04,109.03,107.95,2714400
EOG,20110603,109.35,111.79,107.80,109.43,2246200
EOG,20110602,108.41,111.71,108.41,109.78,3120500
EOG,20110601,109.51,111.67,107.96,107.09,3217400
EOG,20110531,110.01,110.19,107.10,108.03,1783700
EOG,20110527,107.88,109.08,107.39,107.05,1301700
EOG,20110526,106.70,107.50,105.39,106.14,1181900
EOG,20110525,107.20,107.92,105.50,106.11,1595200
EOG,20110524,105.17,107.09,104.85,104.98,2340700
EOG,20110523,105.10,105.60,103.97,103.19,1944500
EOG,20110520,106.07,107.94,104.88,105.76,2023200
EOG,20110519,106.97,107.22,105.07,104.91,1548500
EOG,20110518,105.89,107.47,105.50,105.53,1937100
EOG,20110517,104.13,106.18,103.77,104.53,1970400
EOG,20110516,105.17,107.71,104.23,103.63,1566800
EOG,20110513,105.82,106.80,104.41,104.37,1817400
EOG,20110512,105.46,106.91,104.13,104.45,2214300
EOG,20110511,110.45,110.68,106.00,105.60,2173500
EOG,20110510,111.42,111.78,109.78,109.72,1665800
EOG,20110509,110.23,111.90,109.50,110.19,2382300
EOG,20110506,109.00,111.36,106.13,106.35,3596300
EOG,20110505,104.26,105.43,101.84,103.29,3462700
EOG,20110504,107.76,107.76,104.84,105.20,1933300
EOG,20110503,110.69,110.70,107.23,107.05,2060200
EOG,20110502,113.48,113.80,110.47,109.81,1852500
EOG,20110429,111.85,113.55,111.08,111.90,1315600
EOG,20110428,111.61,113.05,110.33,110.84,1534000
EOG,20110427,112.01,112.20,109.19,110.62,1250200
EOG,20110426,110.74,111.77,109.98,110.58,1100000
EOG,20110425,111.99,112.19,109.73,109.22,967900
EOG,20110421,111.33,112.28,110.60,110.73,1024000
EOG,20110420,111.33,112.01,110.45,110.68,1803200
EOG,20110419,109.91,110.39,108.49,108.36,1533000
EOG,20110418,109.71,110.40,107.84,108.75,1727900
EOG,20110415,110.85,111.87,109.56,109.91,1745700
EOG,20110414,109.70,111.29,108.70,109.59,1815800
EOG,20110413,110.09,112.19,109.64,109.48,1941500
EOG,20110412,111.53,111.53,108.16,107.96,2775200
EOG,20110411,114.56,114.98,111.86,111.36,1436000
EOG,20110408,115.46,116.39,113.80,113.33,1719400
EOG,20110407,114.53,115.68,112.76,113.33,2205200
EOG,20110406,117.73,117.96,114.76,113.47,2033700
EOG,20110405,118.04,118.74,116.63,115.56,1930600
EOG,20110404,118.90,119.82,118.07,116.99,1913800
EOG,20110401,119.17,119.30,117.82,117.01,4158300
EOG,20110331,119.24,120.10,118.42,117.13,2844700
EOG,20110330,120.30,121.44,118.36,117.80,3604700
EOG,20110329,117.51,119.76,115.80,118.28,3032700
EOG,20110328,116.77,119.71,116.34,117.06,3103600
EOG,20110325,115.82,118.13,114.76,116.17,2580500
EOG,20110324,114.91,115.70,113.02,114.21,2877900
EOG,20110323,113.43,114.07,112.00,112.74,4043800
EOG,20110322,112.34,114.43,112.01,112.04,3279100
EOG,20110321,109.49,111.46,109.00,110.10,2263000
EOG,20110318,109.76,110.45,107.04,106.67,2968300
EOG,20110317,106.77,109.16,105.87,107.42,2100000
EOG,20110316,105.80,107.51,103.07,103.27,2536100
EOG,20110315,103.28,106.48,102.65,104.21,2425900
EOG,20110314,105.07,107.10,104.13,105.29,1975600
EOG,20110311,102.61,106.55,102.00,104.42,1883600
EOG,20110310,104.53,104.53,102.41,101.63,2630900
EOG,20110309,106.14,107.63,105.20,104.57,1736200
EOG,20110308,108.54,108.90,106.07,104.96,1746600
EOG,20110307,110.24,111.39,108.18,107.32,1858500
EOG,20110304,110.81,111.58,108.39,108.11,2174400
EOG,20110303,109.31,111.27,107.98,109.80,3034900
EOG,20110302,105.85,108.95,104.38,107.43,7781800
EOG,20110301,109.50,112.19,107.87,106.67,4536500
EOG,20110228,112.09,113.24,111.55,111.00,1750100
EOG,20110225,110.70,112.49,110.04,110.45,1648900
EOG,20110224,114.59,115.17,109.80,108.89,3623500
EOG,20110223,108.51,114.74,108.51,113.06,4150000
EOG,20110222,109.86,111.63,108.09,107.06,2898900
EOG,20110218,106.84,109.80,106.81,107.62,3826100
EOG,20110217,103.28,104.58,102.34,103.01,3063200
EOG,20110216,104.07,105.35,102.94,101.79,2324200
EOG,20110215,104.79,106.19,103.16,102.35,2116000
EOG,20110214,103.35,106.53,103.35,103.68,2121500
EOG,20110211,103.83,104.51,103.05,102.10,1520200
EOG,20110210,103.47,104.69,103.09,103.03,1822800
EOG,20110209,104.30,105.32,102.76,102.74,1704100
EOG,20110208,105.82,105.82,103.55,103.54,2116000
EOG,20110207,107.36,108.47,105.44,104.36,1741800
EOG,20110204,107.30,107.49,105.71,105.54,1654200
EOG,20110203,106.89,107.24,105.62,105.80,974500
EOG,20110202,107.01,108.29,106.34,105.99,1494800
EOG,20110201,106.72,108.27,105.85,106.13,2264000
EOG,20110131,102.74,106.58,102.74,105.15,2308000
EOG,20110128,103.37,105.15,102.17,101.34,2829400
EOG,20110127,101.91,104.14,101.73,102.05,2591100
EOG,20110126,100.38,102.94,100.25,101.09,2319200
EOG,20110125,101.58,101.58,98.94,98.71,1973800
EOG,20110124,101.35,102.13,100.61,100.55,1642300
EOG,20110121,101.99,102.58,100.50,100.54,2406000
EOG,20110120,99.78,101.49,99.23,100.18,2445800
EOG,20110119,102.85,103.00,100.77,100.26,2897400
EOG,20110118,100.83,103.21,100.33,101.68,3007300
EOG,20110114,97.80,100.71,97.25,99.41,2180600
EOG,20110113,98.23,98.58,97.04,96.72,1668200
EOG,20110112,97.49,99.32,96.93,97.34,2588400
EOG,20110111,95.44,96.87,94.78,95.45,2919200
EOG,20110110,94.15,95.00,93.82,93.70,2574800
EOG,20110107,93.26,94.35,92.91,93.01,2415100
EOG,20110106,93.35,94.43,92.30,91.59,2589200
EOG,20110105,91.26,92.99,90.84,91.11,1736300
EOG,20110104,93.08,93.28,91.39,90.92,2062700
EOG,20110103,92.45,93.50,92.27,91.13,1750400
